x,y,theta
0.4977870160410318,0.008013640057790176,0.025861635167023903
0.9844219903472823,0.014306135728760537,0.03389944132081845
1.4804819423711977,0.03735821946273328,0.0455040238347544
1.9835976072938648,0.04906138706539845,0.046300343678343917
2.4902471334816614,0.06416030829360657,0.048580121532590816
2.9668054042829697,0.08504741705146286,0.04542661938973838
3.4797019672832175,0.11313698499542514,0.04811239128746877
3.9799073778995258,0.14127387661942936,0.04618908684108101
4.485757604582042,0.15158862869833886,0.06263626622629176
4.987923603884766,0.18652030072933104,0.0705338123106443
5.475702332166122,0.23478520695898156,0.07389965257516504
5.951772401880356,0.2775944882359767,0.07464634812042525
6.461334163460685,0.32720429665182277,0.07773826451356053
6.957935119466062,0.3671455163076549,0.08486171286534956
7.448728154640314,0.41050722605105683,0.08886639093019838
7.9392679806073225,0.4668452033214053,0.09810501607967305
8.435916485575675,0.508837221548255,0.09355187885840953
8.92939265926563,0.5465761848573866,0.09487431716006901
9.421403674421407,0.6244405007210003,0.10301410072449843
9.944888397276065,0.6885103351571349,0.12271498349276544
10.43637533406955,0.7594603731786972,0.11429804644055921
10.927590919099803,0.813976635607521,0.1189120856420953
11.427809926545839,0.8851272500964946,0.12548289224522652
11.905232405915465,0.9269262511986971,0.13695207168944534
12.397402377188145,0.9939267644000522,0.14517460101981908
12.87837019436333,1.068930938934311,0.14684761122949805
13.372348293230756,1.148289118020561,0.14796299864124374
13.87755726641662,1.2379867713207289,0.16335524831366782
14.381012737394608,1.3179912939910539,0.14390411556375393
14.860298523426277,1.3883685936810657,0.13313834994204035
15.363446370288791,1.4553311604895318,0.12156756659755578
15.861916983226799,1.5084480468272565,0.12326638737351085
16.346321844911103,1.5811768763362046,0.12968478217676796
16.84705574814808,1.6374186357753258,0.13690909983300265
17.33337250507615,1.6959877833044532,0.1519063710644079
17.817279221594525,1.7676208325432525,0.15928950413423143
18.324419196594402,1.858632827886117,0.1653172168403178
18.811325875061762,1.934744671718818,0.16674216634677852
19.317716590785817,2.0259683620860227,0.1758452019927897
19.816516508881712,2.1037426477747387,0.1880270845345649
20.30424481577454,2.194518146593612,0.19663138251649212
20.778712082299283,2.2961463611965565,0.18669401459095494
21.2724864097046,2.372820186470016,0.18044979768449726
21.764471177215587,2.4749386436190433,0.18635863850811862
22.26418182305946,2.5764687166283657,0.18488385522673617
22.742810420976788,2.671598153081558,0.20456171531905742
23.222658072442158,2.777468350711092,0.19773350075974838
23.72341640439625,2.882591941134,0.20792964873191808
24.237093015749306,3.0104312047499744,0.22201424547215806
24.715132732012247,3.121383055525395,0.23586123327002084
25.206282685174948,3.2396201006923064,0.23137114555888164
25.678159435746718,3.342686719297262,0.24234723623679102
26.144572537444922,3.443356831549758,0.24926347743936286
26.637222403937365,3.570675871986663,0.2517892708410066
27.108455821726732,3.698880037330838,0.27447063360650004
27.590727792460964,3.8168983602449145,0.29160156738549514
28.068643085495193,3.932018304092831,0.29443122303033764
28.533299036610853,4.066685425491704,0.2980668362033902
29.014815057924583,4.1979657231440735,0.289571047834054
29.495700137605112,4.33774496634178,0.3115713256983215
29.98129080247811,4.495593803369309,0.32311960538807344
30.438477325990892,4.635272070273878,0.3420491591144353
30.920319601663575,4.802741426542069,0.3274597641513619
31.39459231123478,4.964873619402911,0.34054488497654717
31.869241579330794,5.13273754211491,0.33594114611102394
32.33559630502106,5.300984530163461,0.3312945901868421
32.817361520302974,5.456811708384629,0.32965604012594785
33.2852162491987,5.617546152136753,0.3422721158630713
33.75490462419547,5.780017450596719,0.3479824499779592
34.235736313939675,5.945029662663272,0.37813547791287855
34.69690831015506,6.129697430887423,0.38703363078782327
35.16424303763576,6.315088889333762,0.38973349728038514
35.62722211843465,6.525372761213438,0.3853308922920078
36.0983328892177,6.696639674946804,0.39715965064402214
36.56637643824325,6.886952868285541,0.40563127885416067
37.02976000341217,7.07676050118319,0.41991185601910985
37.482368662796524,7.286016326396903,0.39436693567573994
37.93907608564937,7.474504644175097,0.4028420669875816
38.399078939788126,7.682390131483949,0.40589189564926786
38.86415977651648,7.885033107010569,0.42598414402346946
39.325888688827746,8.090282463083588,0.4316742748915853
39.796295860079425,8.288154754446651,0.42887034362703386
40.25160811260483,8.497220829464057,0.4404367107932015
40.694909773356315,8.712691180940006,0.44403437368572807
41.13728706835714,8.939922190139312,0.45099180333918854
41.59369168821437,9.154115682203457,0.4477339007218871
42.042369435571565,9.366108444099575,0.4560715878086275
42.48172973133947,9.573196943714738,0.46547567993884836
42.931116700998956,9.800616513372548,0.45709741938665216
43.36411143977614,10.015216779089096,0.45923678493205794
43.81692348752933,10.247022491352983,0.4650043349582285
44.265417576098514,10.472464158290316,0.48365475910794953
44.71241338824857,10.719031517532807,0.4821713177612925
45.15462410509182,10.94821316010331,0.5144336973015202
45.6053769826385,11.188388772900192,0.5175076580246846
46.04851321397801,11.434131102723484,0.5201159924996366
46.488573832764764,11.684907322651647,0.5188274516225355
46.91470030204607,11.926687137506107,0.5225221976185286
47.3374125787052,12.176021481023245,0.5335925079649524
47.76653454821479,12.436513335948943,0.5290913945828914
48.19516437020884,12.686747876679469,0.5392652503074744
48.6212788176126,12.945744080395707,0.5400248405038355
49.05451517571494,13.19264885757353,0.526551552833788
49.49221840810566,13.43445419783529,0.538851676285658
49.9188274455717,13.683316447627783,0.5479861554261979
50.34876550811181,13.943555307951186,0.5487917777601249
50.75772612613184,14.212493217717702,0.5429667577539311
51.196712206334645,14.473456649607229,0.5428063191863542
51.61945776662292,14.735638374373808,0.5575904368907201
52.040408326045494,14.999275703431813,0.5783382720962199
52.47036281156944,15.291634875684746,0.5703407467810515
52.894475591967975,15.563214768414696,0.5965751582115366
53.29911547565179,15.845892968248526,0.6070735663070141
53.6994981438425,16.14052808211768,0.5926527934633107
54.10620796689493,16.424501095753374,0.6006425121534771
54.51956014171832,16.724198713362828,0.5957808845956551
54.93206783016873,17.012483492175782,0.5986509515969415
55.33229130522488,17.288107575096706,0.6167225478911775
55.750756371717316,17.5982429970263,0.6240998694646451
56.1463473919729,17.91151611378297,0.6222636895789239
56.55075484959034,18.208553553212734,0.6108754938773815
56.95069683987263,18.49139661839328,0.6249824367817427
57.33380794035009,18.78348598505502,0.6274819783785551
57.75115528197766,19.076360079952725,0.6467872580534882
58.14990752427744,19.374583717097483,0.6578652077677136
58.553719922528366,19.693319171474556,0.6743230177119839
58.94602272574492,19.986818793978884,0.6733052583021917
59.33331615646636,20.29175228660129,0.6773003062087127
59.72778511121256,20.61991332525379,0.666971468510329
60.120432891612715,20.92066215677905,0.6848183070347691
60.49197409068421,21.24005114168881,0.69453120894292
60.88005836259548,21.544322556073446,0.6879411109779561
61.277143534337306,21.876702496700684,0.6762074767426363
61.663889727123205,22.202914391311115,0.6741945111448151
62.06850938271498,22.530857453307533,0.6720328195564101
62.44568145920254,22.837162712201472,0.6556421325032271
62.84950585604041,23.147875545435017,0.663328142116156
63.24826382322323,23.45312522496104,0.6582581840207055
63.64070661935958,23.75385907406907,0.6581687996813783
64.04429607465543,24.04012638609446,0.6819188602111078
64.44090983585548,24.346435697888623,0.7075230216288506
64.81292714227092,24.67082498205592,0.7108402572422181
65.18704500673587,24.9942595945558,0.7219180177407047
65.54812106691807,25.316549002817737,0.7253573529598918
65.91480902683236,25.647063361677258,0.7231302168275102
66.29063473115569,25.986353744514314,0.7041086961318873
66.67494708008854,26.301742508492943,0.7150370034480436
67.06959380790393,26.642060059920187,0.7144411969832837
67.44620475180534,26.958109108390218,0.7116184349808966
67.82552578988098,27.29685647598491,0.7095154393058535
68.2007038299896,27.622653517691013,0.7114279140708605
68.57050569443348,27.923138478612163,0.7184453690912742
68.93541432896797,28.268198206882932,0.6993394919523676
69.3307153372203,28.605339336495625,0.6962245453685024
69.70293470212229,28.920365325727648,0.7159031068549274
70.0904381614194,29.249104179397126,0.7075743212376929
70.46947659152568,29.58175471062546,0.71642504545711
70.84333899034277,29.925282461596694,0.7150869984428269
71.22286168781237,30.255550105917028,0.7273544710044773
71.60190793752612,30.595053805686984,0.7243810076744106
71.9558775087455,30.915536272916007,0.733041965615622
72.32695898208455,31.245382258009172,0.7357847136305415
72.70149295353036,31.56419355528551,0.7460562441016535
73.07034750371567,31.90184272522384,0.7570031554954563
73.4175812500481,32.27300317399838,0.7669632874311492
73.78574792941058,32.62253720388598,0.7689123658134536
74.15124935739061,32.9731366526196,0.7708387872799014
74.49412870934495,33.33280779386931,0.76244785067561
74.85752689631853,33.68653293025505,0.7677729036311064
75.22745075663299,34.03431116453012,0.7760669508570459
75.57959469180082,34.39301303833751,0.7814295191016271
75.93684601195814,34.74721574883924,0.793638137717081
76.28880154717605,35.079049640900934,0.7940978403718892
76.6506113704479,35.42826146991485,0.8103785156179591
76.98096287978801,35.78164070854226,0.8247271706720019
77.31548711245523,36.130065470874264,0.8236083020035168
77.6352200353349,36.511779234700974,0.8172024079608365
77.97917340419272,36.87032328247293,0.8162144984519729
78.31733165871462,37.228769974538,0.8244307836209245
78.65945244601089,37.590206078115436,0.8462786115800895
78.97790612158242,37.98049433932962,0.8268273776994773
79.3147698442859,38.33835045675984,0.8459795981107775
79.63810162267151,38.72185581928557,0.868136376736476
79.97288641234532,39.09349857164432,0.8826120438868129
80.27050132919264,39.48139135452232,0.9041132794976003
80.58938060851561,39.86706077855541,0.9090963249297052
80.90627441739242,40.27220826127046,0.9283657301661329
81.2097594765397,40.65962736177825,0.920881603666047
81.50439818270648,41.05293272709798,0.9285232271146794
81.79299443989147,41.46597164611078,0.9291938972473172
82.08993094308208,41.859200145369044,0.9232739415766785
82.38802615760282,42.25084637656187,0.9398109850222117
82.66985194992918,42.65171628662463,0.9450806747113653
82.96315831930181,43.05454663956881,0.9493112318320308
83.24982306458381,43.463589036623205,0.9484820756214988
83.54606872525832,43.86797609472614,0.9504428932040458
83.82183323917295,44.29296539144961,0.9716197690175568
84.10260732032427,44.70182600453491,0.993023023992193
84.39156447312835,45.1281403428482,0.9892082351003271
84.66113436095526,45.54825706306016,0.9836720993003144
84.93986833881127,45.97606856252178,0.9979456478272888
85.21520095098286,46.399282250907376,1.0131097103234123
85.48076458086594,46.835198924719656,1.017414248820607
85.73890038101743,47.264707694276865,1.0232583163636513
86.01567051982953,47.69964886435807,1.0320976187478084
86.2731423429507,48.13460312655578,1.0232609962410315
86.5197492686552,48.56076114583392,1.0148857478613522
86.77813554981051,48.989730511884176,1.0172257087833807
87.04265882448827,49.40897115905934,1.004902897670999
87.3168431756899,49.83647008511573,1.009483361009734
87.56816424266884,50.256065516284906,1.0144190584406845
87.84387453850732,50.685034781034894,1.0342065165033172
88.10076909149402,51.10304482096329,1.0445850758267714
88.34053939671934,51.53451083430944,1.0620490705613794
88.57264115586456,51.979275585801815,1.0558188816211629
88.8175877126764,52.41371895083669,1.0626348175201599
89.07022914346018,52.841774923129016,1.078616856981432
89.30632870948145,53.28060945638476,1.0896949269915235
89.54477209760772,53.72114077255168,1.1040266559852305
89.7549986345376,54.15830813472553,1.0939590090292455
89.98793446242885,54.596953493829574,1.0953323912118935
90.21544218789302,55.04443862384898,1.092910442279948
90.44037165515587,55.488439705335715,1.1023057107596002
90.67079093410085,55.9391136393795,1.0903568426014585
90.8971924791256,56.38631827004708,1.0930511524459967
91.12665708711785,56.84626201797333,1.1125606052065518
91.35393259647807,57.28373107835059,1.1115278673676785
91.59037521843774,57.72494036735419,1.1355222273916445
91.79408794714787,58.19320189057077,1.1400861497763406
92.02299127777975,58.67242507956802,1.1476580565511532
92.23251300051056,59.12820565279446,1.1754969419192145
92.41531964880814,59.60125147946508,1.188056901524086
92.59418781313688,60.06178156329404,1.1963881450276406
92.79038121974361,60.53780143476519,1.203893309114069
92.98718803316,61.01581177791701,1.2124411806362567
93.16158208430858,61.47799681882681,1.223413088978383
93.33488554576334,61.95140764483029,1.2469049580313967
93.49676425352868,62.41888804414786,1.2623743965639351
93.64919207845621,62.902439100063376,1.2599681336955102
93.79739454245787,63.37681510010082,1.257699981253028
93.95986352825504,63.86058065611027,1.2563833022901658
94.11476329313986,64.33749156595894,1.2704914126386597
94.23185678719422,64.80816166404014,1.2635056364908928
94.3762896204116,65.28209371813452,1.2700704970086094
94.52192196705582,65.75226710621872,1.2757186145312567
94.66823803145014,66.23205080378727,1.2839858730317275
94.8147652002202,66.69500282323774,1.266549464748081
94.94993288933759,67.15604428823612,1.2829709160493243
95.09078410047285,67.62723216977962,1.290875527175245
95.23582943679538,68.11753928512249,1.2955881566909369
95.36311849012307,68.59753282321896,1.3128139353356096
95.4933802743485,69.0710704349382,1.3173497148408124
95.6096044916004,69.54959020755754,1.3451268957405533
95.70601340651393,70.04669352762348,1.3600249347470468
95.81553000879542,70.53169264423143,1.3585546624563647
95.93052253016441,71.00206004504776,1.3617008269291926
96.04806076747758,71.48205678093572,1.3565103501150397
96.14006762645168,71.94664771667523,1.3626956717040386
96.25131240493795,72.43609859403566,1.3471817601064064
96.35413337997267,72.91858923556111,1.3479482383185024
96.46447236304259,73.40480664767638,1.3609752781813587
96.56480491818616,73.90882284282483,1.3610999963135215
96.66695189998832,74.39249355619498,1.383488451800651
96.76032412433884,74.8800642736384,1.3732818819277255
96.84756121594579,75.36002714848478,1.3960676202488629
96.93705054498172,75.85529761283672,1.4042468203145684
97.01715418250144,76.36471309079097,1.3846698609572485
97.11463273529863,76.8467785451952,1.3831760173525836
97.1933623823936,77.33443930752732,1.3769225413944821
97.29533525934906,77.81800013032527,1.3636609682804557
97.40119575909542,78.28613118557514,1.3731999803980297
97.50808412349409,78.75893776216802,1.3767731965443637
97.61525989268718,79.25119195687937,1.3950942237198798
97.69857491154396,79.75163746908571,1.4174595978095845
97.76466427404752,80.23561506863463,1.4270073682179756
97.83119713618115,80.71343610273507,1.4321070112427716
97.90744514581955,81.21789515956263,1.4197118158209838
97.9846971932799,81.70750578539095,1.4248514903565992
98.06453169312157,82.22221228410744,1.4360410027823858
98.13903123702356,82.72653158799667,1.4471580424366701
98.20304088259951,83.22995774091837,1.4327541023788253
98.27573329604202,83.73862359421419,1.4437871223834595
98.35506220058075,84.22895693198619,1.4359012603842116
98.4121156171436,84.73156355666706,1.4370713212963915
98.4744889499252,85.21696405832813,1.4607316502296566
98.54116316698628,85.71241701750364,1.4746134606058243
98.57781968034348,86.21456445005828,1.4918514291779552
98.60233010944285,86.71068566420328,1.5052013813987197
98.63222792820078,87.20935434797673,1.5064098465297462
98.66331680587211,87.70160946715325,1.5278860472690883
98.68683925956128,88.20829848150639,1.5501324533363625
98.68820444092158,88.6973290693521,1.5623704682751864
98.68882440046553,89.19681029094944,1.5797347353890874
98.68628403204946,89.67629724214858,1.5855413095013586
98.68398198247458,90.18729908129797,1.5930925911488636
98.68645841899605,90.6924498738849,1.6069853470940219
98.67483924299192,91.19805317530813,1.6222052268536176
98.64678110627395,91.71710132614982,1.6429497857865514
98.61948808171287,92.21969200830927,1.649566969714245
98.571904137831,92.72105074603115,1.6512414405095
98.53407018589448,93.19940840692222,1.667572372907615
98.47172560195733,93.70514290594835,1.6746670710017375
98.41232305308868,94.18340790348675,1.6798126411857015
98.35519104997773,94.68298750729504,1.6773915785848341
98.3006089267583,95.19444123213506,1.6796663189519676
98.24343317466122,95.68247778496217,1.6748511134717472
98.20525750400394,96.17709841584893,1.705146881240647
98.14392075688713,96.67161753651787,1.716814076785872
98.08363347723507,97.17474754014717,1.7083328842601493
98.01163863750139,97.66054146091,1.7001297443849936
97.93904660744165,98.15324633127126,1.7037537965253138
97.8801751151743,98.65939013513291,1.7095107990192557
97.82497666958696,99.18254001748886,1.7048947824581195
97.75661602966899,99.68499107751957,1.7032247743523008
97.69851539734285,100.19849362573625,1.6968469124494294
97.64161439902303,100.6996464257295,1.7004857152298
97.55979249401817,101.17994636401833,1.6926754864097275
97.52603191320532,101.68468377552766,1.7006650597179716
97.45957404119491,102.18763120701551,1.7253730037438577
97.39261528918868,102.69505622090902,1.7367088873666559
97.30570213615374,103.19851769643455,1.747370423197689
97.21385025471426,103.68389962983964,1.7487142720958957
97.13324339232213,104.17892467371037,1.7525582117211245
97.0503961954346,104.66688480116777,1.759661479750176
96.9756020593838,105.16016948012863,1.7682584499444263
96.8687862604589,105.66239223859154,1.7735740904697244
96.77019117416503,106.1486534671347,1.7769470900311553
96.68708122850838,106.63470052810231,1.768255580247525
96.60059315914764,107.12235188354889,1.7624667608695677
96.49209603954601,107.60805197926251,1.769786832986475
96.38518056062198,108.09083013970321,1.7925306612915535
96.2699917672212,108.58506255541045,1.7957972784188387
96.15030120190949,109.07078080717062,1.7893747237784676
96.04691657127195,109.55300055863835,1.7885010076113108
95.93134639220857,110.03298702970389,1.7979214434536623
95.83098058428399,110.52523778530639,1.7966052770025356
95.73469272747377,111.02808209573462,1.785882586212603
95.63964276873503,111.51719598642237,1.7896880772866985
95.53504772995049,112.00593978269495,1.7924312440516346
95.41015155983699,112.4966637007499,1.8073404748804003
95.28293337565982,112.96856661830246,1.8108274262103075
95.16608348731518,113.45857652870032,1.8132063796227806
95.0418892508124,113.94329744520842,1.818162112470997
94.89940981674314,114.42612118041191,1.8341955641193564
94.7627953851599,114.89649743454038,1.8387461604736353
94.62250622575334,115.36488825743493,1.8460240039600764
94.47486579741708,115.83822413880988,1.853043883454002
94.34941164059556,116.31827983607626,1.850518244598299
94.21396887504488,116.79097030036986,1.8632115220661996
94.06476230568475,117.28277248685707,1.863484049252922
93.90900757183387,117.75142259468994,1.8652182725017634
93.78090754809932,118.23615985959584,1.8603379943290097
93.63894884500523,118.70684484534623,1.867786024998529
93.49147341202955,119.19817114161158,1.8859279452637334
93.32405249803625,119.66130973306676,1.877346144879883
93.17916088168474,120.1279881783891,1.8769014720034987
93.03600452342982,120.58952076910768,1.872742470452185
92.90726330608746,121.09062777202452,1.8734619197099514
92.77348543901171,121.55931797952442,1.8883637598477
92.62592940072318,122.03241849347992,1.8899540004619346
